# dimensionless total [l(l+1)/2pi] C_l's
# for l=2 to 3000, i.e. number of multipoles equal to 2999
#
# -> if you prefer output in CAMB/HealPix/LensPix units/order, set 'format' to 'camb' in input file
# -> if you don't want to see such a header, set 'headers' to 'no' in input file
# -> for CMB lensing (phi), these are C_l^phi-phi for the lensing potential.
#    Remember the conversion factors:
#    C_l^dd (deflection) = l(l+1) C_l^phi-phi
#    C_l^gg (shear/convergence) = 1/4 (l(l+1))^2 C_l^phi-phi
#
# 1:l     2:TT                     3:EE                     4:TE                     5:BB                     6:phiphi                 7:TPhi                   8:Ephi               
    2       1.495437884664e-10       7.309026171930e-15       4.815171199236e-13       0.000000000000e+00       8.628903620077e-09       4.854772059747e-10      -2.515854151453e-12 
    3       1.409365939531e-10       1.238791651530e-14       6.068719691874e-13       0.000000000000e+00       5.411291733562e-09       3.469573607992e-10      -2.211507030987e-12 
    4       1.324622776785e-10       1.446512635754e-14       6.277976520394e-13       0.000000000000e+00       3.776588565426e-09       2.639785174933e-10      -1.764116066986e-12 
    5       1.257504755565e-10       1.337853519748e-14       5.879551646623e-13       0.000000000000e+00       2.821984242826e-09       2.093815822269e-10      -1.309529286387e-12 
    6       1.208053899887e-10       1.032310747867e-14       5.173990841088e-13       0.000000000000e+00       2.205212291625e-09       1.709428888712e-10      -8.948468924717e-13 
    7       1.173297553953e-10       6.841600365731e-15       4.365335861672e-13       0.000000000000e+00       1.778233645716e-09       1.425663921328e-10      -5.443860557739e-13 
    8       1.150037076087e-10       4.042374146227e-15       3.576623511115e-13       0.000000000000e+00       1.468351552271e-09       1.208855455531e-10      -2.689334597221e-13 
    9       1.135828979610e-10       2.336357197407e-15       2.880590506667e-13       0.000000000000e+00       1.235838583687e-09       1.038809727737e-10      -7.009986713274e-14 
   10       1.128526858230e-10       1.571653533680e-15       2.317799681286e-13       0.000000000000e+00       1.056623424104e-09       9.029295918171e-11       5.745597618557e-14 
   11       1.126728108810e-10       1.345905907662e-15       1.905574140124e-13       0.000000000000e+00       8.886898907141e-10       7.950622648740e-11       1.233291889373e-13 
   12       1.129346471568e-10       1.288312421119e-15       1.640636561475e-13       0.000000000000e+00       7.765278532153e-10       7.028428732047e-11       1.421600850517e-13 
   13       1.135181478235e-10       1.200674797168e-15       1.505300359209e-13       0.000000000000e+00       6.844563361808e-10       6.274647733112e-11       1.277329342222e-13 
   14       1.143248469140e-10       1.054790798661e-15       1.474046707183e-13       0.000000000000e+00       6.078507054364e-10       5.620930557639e-11       9.279532855603e-14 
   15       1.153611489473e-10       9.105397340265e-16       1.516730187295e-13       0.000000000000e+00       5.433693980342e-10       5.074770270772e-11       4.959311406851e-14 
   16       1.165881692119e-10       8.293959321154e-16       1.602914708232e-13       0.000000000000e+00       4.885455333937e-10       4.611882999330e-11       7.232456309067e-15 
   17       1.179228705970e-10       8.287731532452e-16       1.707806928958e-13       0.000000000000e+00       4.415155601351e-10       4.212235764759e-11      -2.792920783689e-14 
   18       1.193693242072e-10       8.811664360269e-16       1.812740691556e-13       0.000000000000e+00       4.006946032766e-10       3.857272492404e-11      -5.233421618861e-14 
   19       1.209354647643e-10       9.538926648327e-16       1.907919243736e-13       0.000000000000e+00       3.654375327797e-10       3.544036732316e-11      -6.510245637492e-14 
   20       1.225654143667e-10       1.013472816100e-15       1.985909979680e-13       0.000000000000e+00       3.343837626633e-10       3.267209578101e-11      -6.706958946022e-14 
   21       1.242710931108e-10       1.062834165792e-15       2.047508470276e-13       0.000000000000e+00       3.070458399738e-10       3.022366935568e-11      -6.038518293391e-14 
   22       1.260521983853e-10       1.120089789284e-15       2.097242375960e-13       0.000000000000e+00       2.827706843023e-10       2.801369500322e-11      -4.840846217693e-14 
   23       1.278979430681e-10       1.204635700528e-15       2.139590296503e-13       0.000000000000e+00       2.612248154698e-10       2.601111867145e-11      -3.407761845940e-14 
   24       1.297762501526e-10       1.335071216327e-15       2.179755411931e-13       0.000000000000e+00       2.419102439590e-10       2.418236749329e-11      -2.047693857142e-14 
   25       1.317039872412e-10       1.511806347161e-15       2.222685073527e-13       0.000000000000e+00       2.246000771252e-10       2.253679476659e-11      -9.447604692631e-15 
   26       1.336934755593e-10       1.727825395436e-15       2.272832324260e-13       0.000000000000e+00       2.089813634742e-10       2.107676822822e-11      -2.331880238226e-15 
   27       1.357258649656e-10       1.976711993648e-15       2.330399193312e-13       0.000000000000e+00       1.948668566468e-10       1.976940165298e-11       6.620910054802e-16 
   28       1.377655285371e-10       2.252057275331e-15       2.393544075101e-13       0.000000000000e+00       1.820132731572e-10       1.856391212393e-11      -9.525415727930e-17 
   29       1.398222048259e-10       2.553377845880e-15       2.459227964766e-13       0.000000000000e+00       1.703550530616e-10       1.745581859425e-11      -3.801163301081e-15 
   30       1.419101390468e-10       2.881917848098e-15       2.523094452759e-13       0.000000000000e+00       1.597671058936e-10       1.644629587922e-11      -9.226628284667e-15 
   31       1.440331900680e-10       3.238301833751e-15       2.580005771020e-13       0.000000000000e+00       1.500335710069e-10       1.552719222578e-11      -1.492867190596e-14 
   32       1.461942437917e-10       3.620417551432e-15       2.626239827827e-13       0.000000000000e+00       1.411042599126e-10       1.468924318364e-11      -2.002927471850e-14 
   33       1.483865960048e-10       4.024639259114e-15       2.658008959928e-13       0.000000000000e+00       1.329161025749e-10       1.391501124416e-11      -2.370100994220e-14 
   34       1.505973692740e-10       4.447817460801e-15       2.671636604627e-13       0.000000000000e+00       1.253545997803e-10       1.318312057888e-11      -2.518539295563e-14 
   35       1.528331974341e-10       4.892544941631e-15       2.666307417412e-13       0.000000000000e+00       1.183811101703e-10       1.249407468781e-11      -2.459200264141e-14 
   36       1.551018720030e-10       5.363799250251e-15       2.642298373553e-13       0.000000000000e+00       1.119397491015e-10       1.185260234461e-11      -2.238998746771e-14 
   37       1.574057988403e-10       5.866748489463e-15       2.600329511133e-13       0.000000000000e+00       1.059467524884e-10       1.126051911721e-11      -1.915230814221e-14 
   38       1.597454474709e-10       6.403718089246e-15       2.541715617872e-13       0.000000000000e+00       1.003866722125e-10       1.071667330825e-11      -1.535845094344e-14 
   39       1.621158099169e-10       6.976268053628e-15       2.468320787548e-13       0.000000000000e+00       9.524189704737e-11       1.021643345434e-11      -1.154170488679e-14 
   40       1.645045881899e-10       7.586006451731e-15       2.382561724289e-13       0.000000000000e+00       9.046339008539e-11       9.751289192043e-12      -8.351232592809e-15 
   41       1.668978340713e-10       8.234293956038e-15       2.286722463763e-13       0.000000000000e+00       8.598778061508e-11       9.311565044372e-12      -6.389549253482e-15 
   42       1.693007454417e-10       8.921239581810e-15       2.180548307573e-13       0.000000000000e+00       8.180192176967e-11       8.896400649028e-12      -5.644098924295e-15 
   43       1.717224713283e-10       9.646379565488e-15       2.062925999191e-13       0.000000000000e+00       7.789473426727e-11       8.506475835723e-12      -5.882701743757e-15 
   44       1.741701080960e-10       1.040892641754e-14       1.932520390695e-13       0.000000000000e+00       7.423783405879e-11       8.141142175434e-12      -6.802856091018e-15 
   45       1.766483585592e-10       1.120805242554e-14       1.787875803360e-13       0.000000000000e+00       7.079567737805e-11       7.798866270096e-12      -8.072930717319e-15 
   46       1.791589990101e-10       1.204388710535e-14       1.627792722299e-13       0.000000000000e+00       6.756285936340e-11       7.478986724964e-12      -9.481077934633e-15 
   47       1.817008116428e-10       1.291678483625e-14       1.451037387637e-13       0.000000000000e+00       6.453562262713e-11       7.180288215492e-12      -1.082315078918e-14 
   48       1.842693950149e-10       1.382704581504e-14       1.256226208127e-13       0.000000000000e+00       6.170060689485e-11       6.900409672656e-12      -1.185901736230e-14 
   49       1.868568999767e-10       1.477491403846e-14       1.041817010703e-13       0.000000000000e+00       5.903413485448e-11       6.635762207342e-12      -1.231067331588e-14 
   50       1.894552439876e-10       1.576058618429e-14       8.065346329044e-14       0.000000000000e+00       5.650934504164e-11       6.382569558306e-12      -1.195044338683e-14 
   51       1.920673952923e-10       1.678424577744e-14       5.508041907568e-14       0.000000000000e+00       5.412152984954e-11       6.140512794838e-12      -1.089818924343e-14 
   52       1.946986952436e-10       1.784603481030e-14       2.756917295736e-14       0.000000000000e+00       5.186844078155e-11       5.909933054701e-12      -9.401512760978e-15 
   53       1.973535496193e-10       1.894604218553e-14      -1.748470425072e-15       0.000000000000e+00       4.974270583531e-11       5.690766930227e-12      -7.755014239950e-15 
   54       2.000353282401e-10       2.008430221135e-14      -3.271433740228e-14       0.000000000000e+00       4.773148462396e-11       5.482517217338e-12      -6.302644431381e-15 
   55       2.027464069495e-10       2.126081019375e-14      -6.518237863731e-14       0.000000000000e+00       4.582038719417e-11       5.284482841081e-12      -5.357160520100e-15 
   56       2.054885357322e-10       2.247557719646e-14      -9.914802517514e-14       0.000000000000e+00       4.400716058606e-11       5.096582530989e-12      -4.929674811509e-15 
   57       2.082623862166e-10       2.372858624885e-14      -1.346489197545e-13       0.000000000000e+00       4.229079822636e-11       4.918684528978e-12      -4.937039889665e-15 
   58       2.110673245540e-10       2.501977562049e-14      -1.717284381515e-13       0.000000000000e+00       4.066739925204e-11       4.750346603952e-12      -5.277999651552e-15 
   59       2.139013165824e-10       2.634903798253e-14      -2.104360655412e-13       0.000000000000e+00       3.912998974960e-11       4.590796898611e-12      -5.832311616517e-15 
   60       2.167608329916e-10       2.771621956907e-14      -2.508277728601e-13       0.000000000000e+00       3.766834399436e-11       4.438914776258e-12      -6.459869235694e-15 
   61       2.196423388267e-10       2.912106343071e-14      -2.929545493983e-13       0.000000000000e+00       3.627182452461e-11       4.293534426676e-12      -7.029649097949e-15 
   62       2.225473672379e-10       3.056302620802e-14      -3.368241412916e-13       0.000000000000e+00       3.493905171094e-11       4.154478648254e-12      -7.516130852533e-15 
   63       2.254784214839e-10       3.204141855560e-14      -3.824313535994e-13       0.000000000000e+00       3.367009728911e-11       4.021724177700e-12      -7.923060790036e-15 
   64       2.284374474038e-10       3.355545485998e-14      -4.297691367915e-13       0.000000000000e+00       3.246357571696e-11       3.895090671167e-12      -8.255603991560e-15 
   65       2.314257888521e-10       3.510425062715e-14      -4.788285873165e-13       0.000000000000e+00       3.131656119909e-11       3.774231791961e-12      -8.520412959566e-15 
   66       2.344441431321e-10       3.668681986998e-14      -5.295989481695e-13       0.000000000000e+00       3.022450471148e-11       3.658626298252e-12      -8.725696248715e-15 
   67       2.374925164307e-10       3.830207249571e-14      -5.820676094606e-13       0.000000000000e+00       2.918115102613e-11       3.547569130781e-12      -8.881287096709e-15 
   68       2.405706904545e-10       3.994893232236e-14      -6.362200574302e-13       0.000000000000e+00       2.818020952235e-11       3.440369291052e-12      -8.997621468831e-15 
   69       2.436798317514e-10       4.162672473620e-14      -6.920397082293e-13       0.000000000000e+00       2.722094522692e-11       3.337009957074e-12      -9.082278321330e-15 
   70       2.468211299183e-10       4.333486325153e-14      -7.495080413249e-13       0.000000000000e+00       2.630357681052e-11       3.237606728584e-12      -9.142858374725e-15 
   71       2.499952843251e-10       4.507273629593e-14      -8.086046473352e-13       0.000000000000e+00       2.542758560094e-11       3.142209112743e-12      -9.188052681193e-15 
   72       2.532024726231e-10       4.683970768286e-14      -8.693072272797e-13       0.000000000000e+00       2.459167746153e-11       3.050796900602e-12      -9.227683363181e-15 
   73       2.564423192532e-10       4.863511708428e-14      -9.315915918285e-13       0.000000000000e+00       2.379374466972e-11       2.963276543571e-12      -9.272744352013e-15 
   74       2.597138639552e-10       5.045828050324e-14      -9.954316605526e-13       0.000000000000e+00       2.303082779562e-11       2.879477529885e-12      -9.335442126506e-15 
   75       2.630155302755e-10       5.230849074653e-14      -1.060799461173e-12       0.000000000000e+00       2.229907758044e-11       2.799148761078e-12      -9.429236451570e-15 
   76       2.663457691663e-10       5.418485820097e-14      -1.127662233344e-12       0.000000000000e+00       2.159471053474e-11       2.722025107688e-12      -9.564941669365e-15 
   77       2.697051948897e-10       5.608579859700e-14      -1.195973131937e-12       0.000000000000e+00       2.091716118008e-11       2.648049098042e-12      -9.738119738157e-15 
   78       2.730947832014e-10       5.800945226097e-14      -1.265678819216e-12       0.000000000000e+00       2.026643804540e-11       2.577183260084e-12      -9.939451586237e-15 
   79       2.765152134519e-10       5.995383276802e-14      -1.336722150756e-12       0.000000000000e+00       1.964216348516e-11       2.509341379378e-12      -1.015843321616e-14 
   80       2.799668509377e-10       6.191682413996e-14      -1.409042115315e-12       0.000000000000e+00       1.904355593484e-11       2.444386314649e-12      -1.038333566181e-14 
   81       2.834497292534e-10       6.389617804319e-14      -1.482573774716e-12       0.000000000000e+00       1.846941216652e-11       2.382127813342e-12      -1.060116494543e-14 
   82       2.869635326435e-10       6.588951098660e-14      -1.557248203720e-12       0.000000000000e+00       1.791808954442e-11       2.322320327167e-12      -1.079762203468e-14 
   83       2.905075783539e-10       6.789430151950e-14      -1.632992429900e-12       0.000000000000e+00       1.738748828044e-11       2.264660827654e-12      -1.095706279968e-14 
   84       2.940811834832e-10       6.990813942954e-14      -1.709737774706e-12       0.000000000000e+00       1.687556179959e-11       2.208860249072e-12      -1.106574454064e-14 
   85       2.976848740687e-10       7.192952694076e-14      -1.787446597137e-12       0.000000000000e+00       1.638198391750e-11       2.154876210376e-12      -1.112227166994e-14 
   86       3.013193450163e-10       7.395720581727e-14      -1.866089893982e-12       0.000000000000e+00       1.590672679710e-11       2.102715047930e-12      -1.112881633754e-14 
   87       3.049850824013e-10       7.598991858465e-14      -1.945639372700e-12       0.000000000000e+00       1.544954867439e-11       2.052360685311e-12      -1.108800079542e-14 
   88       3.086823522824e-10       7.802640996318e-14      -2.026067532494e-12       0.000000000000e+00       1.500998498977e-11       2.003773686295e-12      -1.100291259115e-14 
   89       3.124111895159e-10       8.006542830098e-14      -2.107347745383e-12       0.000000000000e+00       1.458733951939e-11       1.956890307842e-12      -1.087711976139e-14 
   90       3.161713865692e-10       8.210572700730e-14      -2.189454337273e-12       0.000000000000e+00       1.418067550652e-11       1.911621553082e-12      -1.071468602545e-14 
   91       3.199624823354e-10       8.414606598564e-14      -2.272362669030e-12       0.000000000000e+00       1.378880679284e-11       1.867852224298e-12      -1.052018597878e-14 
   92       3.237837509467e-10       8.618521306700e-14      -2.356049217553e-12       0.000000000000e+00       1.341028894984e-11       1.825439975912e-12      -1.029872028653e-14 
   93       3.276344607475e-10       8.822183513326e-14      -2.440483564877e-12       0.000000000000e+00       1.304376201074e-11       1.784251070481e-12      -1.005544273285e-14 
   94       3.315147200637e-10       9.025414964280e-14      -2.525602811186e-12       0.000000000000e+00       1.268905689399e-11       1.744275855197e-12      -9.794026999894e-15 
   95       3.354247385470e-10       9.228022310028e-14      -2.611333445502e-12       0.000000000000e+00       1.234623976300e-11       1.705528982939e-12      -9.517996310615e-15 
   96       3.393645609730e-10       9.429807661668e-14      -2.697599065163e-12       0.000000000000e+00       1.201527126451e-11       1.668013819496e-12      -9.231199405412e-15 
   97       3.433340597633e-10       9.630568582828e-14      -2.784320345816e-12       0.000000000000e+00       1.169600248635e-11       1.631722000369e-12      -8.937819034985e-15 
   98       3.473329275081e-10       9.830098081567e-14      -2.871415011415e-12       0.000000000000e+00       1.138817091508e-11       1.596632987573e-12      -8.642380453188e-15 
   99       3.513606694886e-10       1.002818460227e-13      -2.958797804210e-12       0.000000000000e+00       1.109139639374e-11       1.562713626439e-12      -8.349759909880e-15 
  100       3.554165961991e-10       1.022461201757e-13      -3.046380454749e-12       0.000000000000e+00       1.080517707956e-11       1.529917702414e-12      -8.065193143783e-15 
  101       3.594998158699e-10       1.041915962019e-13      -3.134071651872e-12       0.000000000000e+00       1.052888540166e-11       1.498185497862e-12      -7.794283875327e-15 
  102       3.636092269891e-10       1.061160211493e-13      -3.221777012700e-12       0.000000000000e+00       1.026176401873e-11       1.467443348868e-12      -7.543012299511e-15 
  103       3.677435108255e-10       1.080170961050e-13      -3.309399052638e-12       0.000000000000e+00       1.000292177681e-11       1.437603202037e-12      -7.317743578747e-15 
  104       3.719014136465e-10       1.098925847868e-13      -3.396843690704e-12       0.000000000000e+00       9.751535735634e-12       1.408582661539e-12      -7.123760975854e-15 
  105       3.760826528979e-10       1.117406561990e-13      -3.484040830972e-12       0.000000000000e+00       9.507497035391e-12       1.380369168985e-12      -6.960621288855e-15 
  106       3.802871200653e-10       1.135595883290e-13      -3.570926518388e-12       0.000000000000e+00       9.270845147354e-12       1.352963707427e-12      -6.826184915435e-15 
  107       3.845145976671e-10       1.153476647078e-13      -3.657436693013e-12       0.000000000000e+00       9.041567839861e-12       1.326360869914e-12      -6.718027558937e-15 
